 Ti Density=4.54
 Energy(eV), Delta, Beta
  5000.  2.30392543E-05  6.2965255E-06
  5035.96387  2.78808384E-05  6.1429223E-06
  5072.18652  2.8244247E-05  5.99308169E-06
  5108.66943  2.84416128E-05  5.84666577E-06
  5145.41504  2.84695871E-05  5.70358588E-06
  5182.4248  2.84108246E-05  5.56370742E-06
  5219.70117  2.83070785E-05  5.42710541E-06
  5257.24512  2.81446264E-05  5.29349518E-06
  5295.05957  2.79707947E-05  5.16311366E-06
  5333.146  2.77568506E-05  5.03559386E-06
  5371.50586  2.7537204E-05  4.91115225E-06
  5410.14209  2.72969028E-05  4.78954007E-06
  5449.05615  2.70495766E-05  4.67078598E-06
  5488.24951  2.67920495E-05  4.55477766E-06
  5527.72559  2.65272993E-05  4.44145144E-06
  5567.48486  2.62587037E-05  4.33081686E-06
  5607.53125  2.59830267E-05  4.22271796E-06
  5647.86475  2.57073898E-05  4.1172616E-06
  5688.48828  2.54251481E-05  4.01415491E-06
  5729.40479  2.51440397E-05  3.91358935E-06
  5770.61523  2.48594752E-05  3.81537893E-06
  5812.12158  2.45755618E-05  3.71955002E-06
  5853.92725  2.4290619E-05  3.62598666E-06
  5896.0332  2.40057816E-05  3.53463406E-06
  5938.44238  2.37216354E-05  3.44547652E-06
  5981.15625  2.34373711E-05  3.35842151E-06
  6024.17725  2.31551658E-05  3.27351336E-06
  6067.50781  2.28724548E-05  3.19059222E-06
  6111.1499  2.25924323E-05  3.10973928E-06
  6155.10645  2.23127336E-05  3.03077059E-06
  6199.37842  2.20354777E-05  2.95376685E-06
  6243.96924  2.17594315E-05  2.87861531E-06
  6288.88086  2.14854845E-05  2.80529616E-06
  6334.11523  2.12135801E-05  2.73376281E-06
  6379.67529  2.09434711E-05  2.66393431E-06
  6425.56299  2.06759833E-05  2.59583862E-06
  6471.78076  2.04100179E-05  2.52938889E-06
  6518.33057  2.01470466E-05  2.46461991E-06
  6565.21582  1.98856269E-05  2.40140548E-06
  6612.43799  1.96271685E-05  2.33978358E-06
  6659.99951  1.93707947E-05  2.27967053E-06
  6707.90381  1.91170748E-05  2.22104541E-06
  6756.15186  1.88658141E-05  2.16385752E-06
  6804.74756  1.86169655E-05  2.10806593E-06
  6853.69238  1.83708853E-05  2.05366996E-06
  6902.98975  1.81270043E-05  2.00061709E-06
  6952.6416  1.78860901E-05  1.94892391E-06
  7002.65039  1.76472495E-05  1.89849573E-06
  7053.01904  1.74113902E-05  1.8493522E-06
  7103.74951  1.71778993E-05  1.80139932E-06
  7154.8457  1.69471423E-05  1.75466084E-06
  7206.30908  1.67188664E-05  1.70909743E-06
  7258.14209  1.64932153E-05  1.66467476E-06
  7310.34814  1.62702599E-05  1.62137405E-06
  7362.93018  1.60496911E-05  1.5791403E-06
  7415.89014  1.58319144E-05  1.53798624E-06
  7469.23096  1.56164151E-05  1.49786092E-06
  7522.95557  1.54037134E-05  1.45877061E-06
  7577.06641  1.51933318E-05  1.42063914E-06
  7631.56641  1.49856332E-05  1.38349196E-06
  7686.45898  1.47803839E-05  1.34728941E-06
  7741.74561  1.45776512E-05  1.31200704E-06
  7797.43066  1.4377425E-05  1.27762769E-06
  7853.51562  1.41796172E-05  1.24411122E-06
  7910.00439  1.39843887E-05  1.21145831E-06
  7966.89941  1.37914003E-05  1.17964328E-06
  8024.20361  1.36009903E-05  1.14865361E-06
  8081.91992  1.34128722E-05  1.11842076E-06
  8140.05127  1.32272298E-05  1.08897291E-06
  8198.60059  1.30438411E-05  1.06027369E-06
  8257.57227  1.28628435E-05  1.03231332E-06
  8316.9668  1.26841951E-05  1.00507134E-06
  8376.78906  1.2507775E-05  9.78525577E-07
  8437.04102  1.23336758E-05  9.52671542E-07
  8497.72656  1.21617568E-05  9.27480357E-07
  8558.84961  1.19921779E-05  9.02950831E-07
  8620.41113  1.18247199E-05  8.790484E-07
  8682.41602  1.16595347E-05  8.55767723E-07
  8744.86719  1.14964178E-05  8.33070942E-07
  8807.7666  1.1335499E-05  8.10977212E-07
  8871.11914  1.11767104E-05  7.89470448E-07
  8934.92676  1.10200226E-05  7.68498808E-07
  8999.19434  1.08654458E-05  7.48060586E-07
  9063.92383  1.07128644E-05  7.28163229E-07
  9129.11816  1.05623812E-05  7.08796222E-07
  9194.78223  1.04138171E-05  6.89921364E-07
  9260.91797  1.02673121E-05  6.7154815E-07
  9327.5293  1.0122737E-05  6.53661402E-07
  9394.62109  9.98014275E-06  6.36232528E-07
  9462.19434  9.8394612E-06  6.19238051E-07
  9530.25293  9.70067867E-06  6.02695764E-07
  9598.80273  9.56377426E-06  5.86593615E-07
  9667.84473  9.42870884E-06  5.70914779E-07
  9737.38379  9.29551061E-06  5.55651582E-07
  9807.42188  9.16407225E-06  5.40777307E-07
  9877.96484  9.03447926E-06  5.26299573E-07
  9949.01562  8.90662159E-06  5.12198312E-07
  10020.5771  8.78052924E-06  4.98469944E-07
  10092.6514  8.65617221E-06  4.85102021E-07
  10165.2471  8.53350321E-06  4.72082206E-07
  10238.3623  8.41255132E-06  4.59410529E-07
  10312.0049  8.2932047E-06  4.47069283E-07
  10386.1777  8.17555156E-06  4.35059746E-07
  10460.8818  8.05949276E-06  4.23358671E-07
  10536.126  7.94507469E-06  4.11971115E-07
  10611.9092  7.83220457E-06  4.00883238E-07
  10688.2383  7.72090698E-06  3.90091088E-07
  10765.1172  7.61115371E-06  3.79583753E-07
  10842.5479  7.50292293E-06  3.69353643E-07
  10920.5361  7.39621282E-06  3.59396466E-07
  10999.085  7.29096564E-06  3.49698524E-07
  11078.1992  7.18721549E-06  3.40263E-07
  11157.8818  7.08485777E-06  3.31074489E-07
  11238.1387  6.98395706E-06  3.22134326E-07
  11318.9717  6.88446289E-06  3.13427336E-07
  11400.3877  6.78637434E-06  3.04952835E-07
  11482.3877  6.68965095E-06  2.96704343E-07
  11564.9775  6.59427451E-06  2.88675778E-07
  11648.1631  6.50024049E-06  2.80862935E-07
  11731.9453  6.40751341E-06  2.73257996E-07
  11816.3301  6.31610692E-06  2.65858603E-07
  11901.3223  6.22595644E-06  2.58650118E-07
  11986.9258  6.13709199E-06  2.51637715E-07
  12073.1445  6.04947718E-06  2.44810508E-07
  12159.9854  5.96310792E-06  2.38167559E-07
  12247.4492  5.87794466E-06  2.31702202E-07
  12335.542  5.7939792E-06  2.25410105E-07
  12424.2686  5.71120154E-06  2.19287614E-07
  12513.6338  5.62958394E-06  2.13328164E-07
  12603.6416  5.54913049E-06  2.07530263E-07
  12694.2969  5.46980664E-06  2.01884987E-07
  12785.6035  5.39161738E-06  1.96393458E-07
  12877.5693  5.31451678E-06  1.91047093E-07
  12970.1934  5.23851622E-06  1.85846233E-07
  13063.4854  5.16358887E-06  1.80784056E-07
  13157.4492  5.08972471E-06  1.75858133E-07
  13252.0879  5.01691056E-06  1.71065466E-07
  13347.4062  4.94512597E-06  1.66401534E-07
  13443.4111  4.87436546E-06  1.61864577E-07
  13540.1074  4.80460039E-06  1.57447957E-07
  13637.499  4.73583395E-06  1.53152044E-07
  13735.5898  4.66804431E-06  1.48970244E-07
  13834.3867  4.60122374E-06  1.44902472E-07
  13933.8945  4.53534722E-06  1.40943754E-07
  14034.1191  4.47040748E-06  1.3709267E-07
  14135.0625  4.40639087E-06  1.33345679E-07
  14236.7324  4.34328103E-06  1.29699529E-07
  14339.1348  4.28107433E-06  1.26152713E-07
  14442.2734  4.21975847E-06  1.22700698E-07
  14546.1533  4.15932118E-06  1.19343554E-07
  14650.7812  4.09973381E-06  1.1607645E-07
  14756.1611  4.0409991E-06  1.12898896E-07
  14862.2979  3.98310112E-06  1.09806329E-07
  14969.2002  3.92602897E-06  1.06797579E-07
  15076.8701  3.86977126E-06  1.03870846E-07
  15185.3145  3.81431664E-06  1.0102373E-07
  15294.5391  3.75965601E-06  9.82541408E-08
  15404.5498  3.70577845E-06  9.55585904E-08
  15515.3516  3.65267306E-06  9.29371495E-08
  15626.9492  3.60032141E-06  9.03864859E-08
  15739.3506  3.54872054E-06  8.79061375E-08
  15852.5605  3.49785319E-06  8.54923812E-08
  15966.585  3.44771342E-06  8.31445561E-08
  16081.4287  3.39829239E-06  8.0860552E-08
  16197.0986  3.34957986E-06  7.86385641E-08
  16313.6016  3.30156536E-06  7.64776473E-08
  16430.9414  3.25423957E-06  7.43755066E-08
  16549.125  3.20759182E-06  7.23312326E-08
  16668.1602  3.16160572E-06  7.03414429E-08
  16788.0508  3.11627923E-06  6.84064361E-08
  16908.8027  3.07160349E-06  6.65243931E-08
  17030.4238  3.02756803E-06  6.46941487E-08
  17152.9219  2.98416239E-06  6.29135712E-08
  17276.2969  2.94138067E-06  6.11815878E-08
  17400.5625  2.89920922E-06  5.94969727E-08
  17525.7207  2.85763895E-06  5.78579495E-08
  17651.7793  2.81666507E-06  5.62642697E-08
  17778.7441  2.77628396E-06  5.47141425E-08
  17906.625  2.73648106E-06  5.32068576E-08
  18035.4219  2.69725001E-06  5.17402583E-08
  18165.1465  2.65858057E-06  5.03140427E-08
  18295.8047  2.62046228E-06  4.8926708E-08
  18427.4023  2.58288856E-06  4.75775508E-08
  18559.9473  2.5458553E-06  4.62654448E-08
  18693.4453  2.50935636E-06  4.49891857E-08
  18827.9023  2.47338062E-06  4.37482051E-08
  18963.3281  2.43792056E-06  4.25410285E-08
  19099.7266  2.40296913E-06  4.1367386E-08
  19237.1074  2.3685227E-06  4.02254585E-08
  19375.4766  2.33457035E-06  3.91151076E-08
  19514.8379  2.30110254E-06  3.80352603E-08
  19655.2051  2.26811198E-06  3.69851314E-08
  19796.5801  2.23559687E-06  3.5963911E-08
  19938.9727  2.20355014E-06  3.49706148E-08
  20082.3906  2.17196248E-06  3.40046782E-08
  20226.8379  2.14082797E-06  3.30650529E-08
  20372.3242  2.11014003E-06  3.21515259E-08
  20518.8594  2.07989524E-06  3.12629176E-08
  20666.4473  2.0500845E-06  3.03990255E-08
  20815.0957  2.020701E-06  2.95586879E-08
  20964.8125  1.99173905E-06  2.87415265E-08
  21115.6113  1.96319115E-06  2.79469106E-08
  21267.4902  1.93505298E-06  2.71741776E-08
  21420.4629  1.90731907E-06  2.6422887E-08
  21574.5352  1.87998558E-06  2.56921737E-08
  21729.7148  1.85304384E-06  2.49817926E-08
  21886.0117  1.82649171E-06  2.42908538E-08
  22043.4336  1.80031986E-06  2.36191386E-08
  22201.9883  1.77452034E-06  2.29658017E-08
  22361.6816  1.74908985E-06  2.23306174E-08
  22522.5234  1.72402747E-06  2.17129656E-08
  22684.5234  1.6993273E-06  2.11123705E-08
  22847.6875  1.67498115E-06  2.05284056E-08
  23012.0273  1.65098334E-06  1.99603978E-08
  23177.5469  1.62732977E-06  1.94082563E-08
  23344.2598  1.60401487E-06  1.88712672E-08
  23512.1699  1.5810341E-06  1.83492599E-08
  23681.2871  1.55838507E-06  1.78416304E-08
  23851.6211  1.53606095E-06  1.73481212E-08
  24023.1797  1.51405709E-06  1.68681833E-08
  24195.9746  1.4923678E-06  1.64015361E-08
  24370.0098  1.47099161E-06  1.5947851E-08
  24545.3008  1.44992487E-06  1.55066751E-08
  24721.8496  1.42915997E-06  1.50778003E-08
  24899.666  1.40869031E-06  1.46606611E-08
  25078.7637  1.38851351E-06  1.42551961E-08
  25259.1523  1.36862991E-06  1.38609044E-08
  25440.834  1.34903235E-06  1.34776084E-08
  25623.8242  1.32971536E-06  1.31049225E-08
  25808.1309  1.31067475E-06  1.27425892E-08
  25993.7637  1.29190698E-06  1.23902808E-08
  26180.7324  1.27340763E-06  1.20477077E-08
  26369.0449  1.25517363E-06  1.1714703E-08
  26558.7109  1.23720326E-06  1.13909229E-08
  26749.7422  1.21948983E-06  1.10761951E-08
  26942.1465  1.20203219E-06  1.07700959E-08
  27135.9355  1.18482467E-06  1.04725597E-08
  27331.1191  1.16786339E-06  1.01832489E-08
  27527.7051  1.15114517E-06  9.90197879E-09
  27725.707  1.13466797E-06  9.62853708E-09
  27925.1309  1.1184294E-06  9.36267153E-09
  28125.9902  1.10242286E-06  9.1042418E-09
  28328.2949  1.08664346E-06  8.85292462E-09
  28532.0547  1.07108997E-06  8.60864624E-09
  28737.2773  1.05576316E-06  8.37113934E-09
  28943.9805  1.04065566E-06  8.14027601E-09
  29152.166  1.0257661E-06  7.91579424E-09
  29361.8535  1.01108981E-06  7.69758213E-09
  29573.0469  9.9660565E-07  7.48542917E-09
  29785.7598  9.82307142E-07  7.27915594E-09
  30000.002  9.68237714E-07  7.07864434E-09
